# x (m), y (m), vx (m/s), vy (m/s)
10.000000 0.000000 -0.000000 3.000000
9.995500 0.299955 -0.089987 2.998650
9.982005 0.599640 -0.179892 2.994602
9.959527 0.898785 -0.269636 2.987858
9.928086 1.197122 -0.359137 2.978426
9.887711 1.494381 -0.448314 2.966313
9.838437 1.790296 -0.537089 2.951531
9.780309 2.084599 -0.625380 2.934093
9.713380 2.377026 -0.713108 2.914014
9.637709 2.667314 -0.800194 2.891313
9.553365 2.955202 -0.886561 2.866009
9.460423 3.240430 -0.972129 2.838127
9.358968 3.522742 -1.056823 2.807690
9.249091 3.801884 -1.140565 2.774727
9.130889 4.077605 -1.223281 2.739267
9.004471 4.349655 -1.304897 2.701341
8.869949 4.617792 -1.385338 2.660985
8.727445 4.881772 -1.464532 2.618234
8.577087 5.141360 -1.542408 2.573126
8.419010 5.396320 -1.618896 2.525703
8.253356 5.646425 -1.693927 2.476007
8.080275 5.891448 -1.767434 2.424083
7.899922 6.131169 -1.839351 2.369977
7.712460 6.365372 -1.909612 2.313738
7.518057 6.593847 -1.978154 2.255417
7.316889 6.816388 -2.044916 2.195067
7.109135 7.032794 -2.109838 2.132741
6.894984 7.242872 -2.172862 2.068495
6.674628 7.446431 -2.233929 2.002388
6.448265 7.643289 -2.292987 1.934480
6.216100 7.833269 -2.349981 1.864830
5.978340 8.016199 -2.404860 1.793502
5.735200 8.191916 -2.457575 1.720560
5.486899 8.360260 -2.508078 1.646070
5.233660 8.521080 -2.556324 1.570098
4.975710 8.674232 -2.602270 1.492713
4.713284 8.819578 -2.645873 1.413985
4.446615 8.956987 -2.687096 1.333985
4.175945 9.086335 -2.725900 1.252784
3.901517 9.207506 -2.762252 1.170455
3.623578 9.320391 -2.796117 1.087073
3.342377 9.424888 -2.827466 1.002713
3.058169 9.520903 -2.856271 0.917451
2.771209 9.608351 -2.882505 0.831363
2.481755 9.687151 -2.906145 0.744526
2.190067 9.757234 -2.927170 0.657020
1.896408 9.818535 -2.945561 0.568922
1.601043 9.871001 -2.961300 0.480313
1.304237 9.914583 -2.974375 0.391271
1.006257 9.949243 -2.984773 0.301877
0.707372 9.974950 -2.992485 0.212212
0.407850 9.991679 -2.997504 0.122355
0.107961 9.999417 -2.999825 0.032388
-0.192025 9.998156 -2.999447 -0.057607
-0.491838 9.987897 -2.996369 -0.147551
-0.791209 9.968650 -2.990595 -0.237363
-1.089868 9.940432 -2.982130 -0.326960
-1.387545 9.903268 -2.970980 -0.416264
-1.683974 9.857192 -2.957158 -0.505192
-1.978888 9.802245 -2.940673 -0.593666
-2.272021 9.738476 -2.921543 -0.681606
-2.563109 9.665944 -2.899783 -0.768933
-2.851891 9.584713 -2.875414 -0.855567
-3.138106 9.494856 -2.848457 -0.941432
-3.421497 9.396455 -2.818936 -1.026449
-3.701808 9.289597 -2.786879 -1.110542
-3.978789 9.174380 -2.752314 -1.193637
-4.252189 9.050906 -2.715272 -1.275657
-4.521762 8.919287 -2.675786 -1.356528
-4.787265 8.779641 -2.633892 -1.436180
-5.048461 8.632094 -2.589628 -1.514538
-5.305113 8.476778 -2.543034 -1.591534
-5.556991 8.313835 -2.494150 -1.667097
-5.803869 8.143409 -2.443023 -1.741161
-6.045523 7.965655 -2.389696 -1.813657
-6.281736 7.780732 -2.334220 -1.884521
-6.512297 7.588807 -2.276642 -1.953689
-6.736996 7.390053 -2.217016 -2.021099
-6.955633 7.184648 -2.155394 -2.086690
-7.168011 6.972777 -2.091833 -2.150403
-7.373937 6.754632 -2.026390 -2.212181
-7.573228 6.530408 -1.959122 -2.271968
-7.765703 6.300306 -1.890092 -2.329711
-7.951189 6.064535 -1.819361 -2.385357
-8.129520 5.823306 -1.746992 -2.438856
-8.300535 5.576837 -1.673051 -2.490161
-8.464080 5.325349 -1.597605 -2.539224
-8.620008 5.069069 -1.520721 -2.586003
-8.768179 4.808226 -1.442468 -2.630454
-8.908459 4.543057 -1.362917 -2.672538
-9.040721 4.273799 -1.282140 -2.712216
-9.164848 4.000695 -1.200208 -2.749454
-9.280727 3.723990 -1.117197 -2.784218
-9.388254 3.443935 -1.033180 -2.816476
-9.487332 3.160780 -0.948234 -2.846200
-9.577872 2.874780 -0.862434 -2.873362
-9.659793 2.586193 -0.775858 -2.897938
-9.733021 2.295279 -0.688584 -2.919906
-9.797489 2.002300 -0.600690 -2.939247
-9.853141 1.707518 -0.512255 -2.955942
-9.899925 1.411200 -0.423360 -2.969977
-9.937800 1.113612 -0.334084 -2.981340
-9.966732 0.815022 -0.244506 -2.990019
-9.986694 0.515698 -0.154709 -2.996008
-9.997669 0.215910 -0.064773 -2.999301
-9.999647 -0.084072 0.025222 -2.999894
-9.992625 -0.383979 0.115194 -2.997788
-9.976611 -0.683540 0.205062 -2.992983
-9.951619 -0.982486 0.294746 -2.985486
-9.917671 -1.280548 0.384164 -2.975301
-9.874798 -1.577457 0.473237 -2.962439
-9.823038 -1.872947 0.561884 -2.946911
-9.762438 -2.166751 0.650025 -2.928731
-9.693052 -2.458605 0.737582 -2.907916
-9.614944 -2.748247 0.824474 -2.884483
-9.528182 -3.035415 0.910625 -2.858455
-9.432846 -3.319852 0.995956 -2.829854
-9.329021 -3.601301 1.080390 -2.798706
-9.216800 -3.879509 1.163853 -2.765040
-9.096285 -4.154226 1.246268 -2.728886
-8.967584 -4.425204 1.327561 -2.690275
-8.830813 -4.692200 1.407660 -2.649244
-8.686094 -4.954974 1.486492 -2.605828
-8.533559 -5.213288 1.563986 -2.560068
-8.373344 -5.466910 1.640073 -2.512003
-8.205594 -5.715613 1.714684 -2.461678
-8.030459 -5.959172 1.787752 -2.409138
-7.848097 -6.197368 1.859211 -2.354429
-7.658672 -6.429987 1.928996 -2.297602
-7.462355 -6.656820 1.997046 -2.238707
-7.259323 -6.877662 2.063298 -2.177797
-7.049758 -7.092314 2.127694 -2.114927
-6.833848 -7.300584 2.190175 -2.050154
-6.611788 -7.502283 2.250685 -1.983537
-6.383779 -7.697231 2.309169 -1.915134
-6.150024 -7.885253 2.365576 -1.845007
-5.910734 -8.066177 2.419853 -1.773220
-5.666126 -8.239843 2.471953 -1.699838
-5.416418 -8.406094 2.521828 -1.624925
-5.161836 -8.564780 2.569434 -1.548551
-4.902608 -8.715758 2.614727 -1.470782
-4.638969 -8.858892 2.657668 -1.391691
-4.371154 -8.994054 2.698216 -1.311346
-4.099406 -9.121122 2.736337 -1.229822
-3.823969 -9.239982 2.771994 -1.147191
-3.545091 -9.350526 2.805158 -1.063527
-3.263022 -9.452655 2.835797 -0.978907
-2.978016 -9.546278 2.863883 -0.893405
-2.690331 -9.631309 2.889393 -0.807099
-2.400225 -9.707673 2.912302 -0.720067
-2.107958 -9.775301 2.932590 -0.632387
-1.813794 -9.834132 2.950240 -0.544138
-1.517999 -9.884113 2.965234 -0.455400
-1.220837 -9.925198 2.977559 -0.366251
-0.922576 -9.957352 2.987206 -0.276773
-0.623485 -9.980544 2.994163 -0.187046
-0.323833 -9.994755 2.998427 -0.097150
-0.023890 -9.999971 2.999991 -0.007167
0.276075 -9.996188 2.998857 0.082823
0.575792 -9.983409 2.995023 0.172737
0.874990 -9.961646 2.988494 0.262497
1.173401 -9.930918 2.979275 0.352020
1.470756 -9.891253 2.967376 0.441227
1.766787 -9.842686 2.952806 0.530036
2.061228 -9.785261 2.935578 0.618368
2.353814 -9.719031 2.915709 0.706144
2.644282 -9.644054 2.893216 0.793285
2.932371 -9.560398 2.868119 0.879711
3.217820 -9.468138 2.840441 0.965346
3.500374 -9.367357 2.810207 1.050112
3.779777 -9.258147 2.777444 1.133933
4.055779 -9.140605 2.742181 1.216734
4.328131 -9.014837 2.704451 1.298439
4.596588 -8.880956 2.664287 1.378977
4.860909 -8.739083 2.621725 1.458273
5.120855 -8.589345 2.576803 1.536256
5.376192 -8.431877 2.529563 1.612858
5.626692 -8.266822 2.480047 1.688007
5.872127 -8.094327 2.428298 1.761638
6.112278 -7.914547 2.374364 1.833683
6.346929 -7.727645 2.318293 1.904079
6.575867 -7.533788 2.260137 1.972760
6.798888 -7.333152 2.199946 2.039666
7.015791 -7.125916 2.137775 2.104737
7.226379 -6.912268 2.073680 2.167914
7.430464 -6.692399 2.007720 2.229139
7.627863 -6.466507 1.939952 2.288359
7.818397 -6.234795 1.870439 2.345519
8.001894 -5.997473 1.799242 2.400568
8.178191 -5.754754 1.726426 2.453457
8.347128 -5.506855 1.652057 2.504138
8.508553 -5.254001 1.576200 2.552566
8.662321 -4.996419 1.498926 2.598696
8.808293 -4.734340 1.420302 2.642488
8.946338 -4.468001 1.340400 2.683902
9.076333 -4.197640 1.259292 2.722900
9.198159 -3.923502 1.177051 2.759448
9.311708 -3.645833 1.093750 2.793512
9.416876 -3.364884 1.009465 2.825063
9.513570 -3.080906 0.924272 2.854071
9.601703 -2.794155 0.838246 2.880511
9.681195 -2.504890 0.751467 2.904358
9.751974 -2.213370 0.664011 2.925592
9.813977 -1.919859 0.575958 2.944193
9.867148 -1.624620 0.487386 2.960144
9.911439 -1.327919 0.398376 2.973432
9.946811 -1.030023 0.309007 2.984043
9.973232 -0.731200 0.219360 2.991969
9.990677 -0.431719 0.129516 2.997203
9.999131 -0.131849 0.039555 2.999739
9.998586 0.168139 -0.050442 2.999576
9.989044 0.467976 -0.140393 2.996713
9.970512 0.767392 -0.230218 2.991154
9.943007 1.066117 -0.319835 2.982902
9.906555 1.363883 -0.409165 2.971966
9.861187 1.660421 -0.498126 2.958356
9.806944 1.955465 -0.586640 2.942083
9.743876 2.248749 -0.674625 2.923163
9.672040 2.540010 -0.762003 2.901612
9.591499 2.828985 -0.848695 2.877450
9.502326 3.115414 -0.934624 2.850698
9.404602 3.399039 -1.019712 2.821381
9.298414 3.679605 -1.103882 2.789524
9.183859 3.956860 -1.187058 2.755158
9.061038 4.230554 -1.269166 2.718311
8.930063 4.500441 -1.350132 2.679019
8.791052 4.766277 -1.429883 2.637316
8.644130 5.027825 -1.508347 2.593239
8.489428 5.284847 -1.585454 2.546828
8.327086 5.537114 -1.661134 2.498126
8.157251 5.784398 -1.735319 2.447175
7.980075 6.026476 -1.807943 2.394022
7.795717 6.263130 -1.878939 2.338715
7.604343 6.494149 -1.948245 2.281303
7.406126 6.719322 -2.015797 2.221838
7.201244 6.938449 -2.081535 2.160373
6.989882 7.151332 -2.145400 2.096965
6.772229 7.357779 -2.207334 2.031669
6.548481 7.557605 -2.267282 1.964544
6.318840 7.750629 -2.325189 1.895652
6.083513 7.936679 -2.381004 1.825054
5.842711 8.115585 -2.434676 1.752813
5.596651 8.287189 -2.486157 1.678995
5.345554 8.451334 -2.535400 1.603666
5.089647 8.607874 -2.582362 1.526894
4.829159 8.756667 -2.627000 1.448748
4.564326 8.897580 -2.669274 1.369298
4.295385 9.030486 -2.709146 1.288615
4.022578 9.155264 -2.746579 1.206773
3.746151 9.271804 -2.781541 1.123845
3.466353 9.380000 -2.814000 1.039906
3.183436 9.479754 -2.843926 0.955031
2.897653 9.570977 -2.871293 0.869296
2.609263 9.653587 -2.896076 0.782779
2.318525 9.727510 -2.918253 0.695557
2.025700 9.792678 -2.937803 0.607710
1.731052 9.849033 -2.954710 0.519316
1.434847 9.896525 -2.968958 0.430454
1.137350 9.935111 -2.980533 0.341205
0.838829 9.964756 -2.989427 0.251649
0.539554 9.985433 -2.995630 0.161866
0.239793 9.997125 -2.999137 0.071938
-0.060183 9.999819 -2.999946 -0.018055
-0.360106 9.993514 -2.998054 -0.108032
-0.659704 9.978216 -2.993465 -0.197911
-0.958709 9.953938 -2.986181 -0.287613
-1.256851 9.920702 -2.976211 -0.377055
-1.553862 9.878538 -2.963561 -0.466159
-1.849474 9.827484 -2.948245 -0.554842
-2.143422 9.767586 -2.930276 -0.643027
-2.435442 9.698898 -2.909669 -0.730632
-2.725269 9.621482 -2.886444 -0.817581
-3.012644 9.535406 -2.860622 -0.903793
-3.297308 9.440750 -2.832225 -0.989192
-3.579004 9.337598 -2.801279 -1.073701
-3.857479 9.226042 -2.767813 -1.157244
-4.132483 9.106184 -2.731855 -1.239745
-4.403768 8.978130 -2.693439 -1.321131
-4.671090 8.841997 -2.652599 -1.401327
-4.934209 8.697907 -2.609372 -1.480263
-5.192887 8.545989 -2.563797 -1.557866
-5.446891 8.386380 -2.515914 -1.634067
-5.695994 8.219225 -2.465767 -1.708798
-5.939971 8.044672 -2.413402 -1.781991
-6.178602 7.862880 -2.358864 -1.853581
-6.411673 7.674012 -2.302203 -1.923502
-6.638973 7.478237 -2.243471 -1.991692
-6.860300 7.275733 -2.182720 -2.058090
-7.075452 7.066681 -2.120004 -2.122636
-7.284237 6.851269 -2.055381 -2.185271
-7.486466 6.629692 -1.988908 -2.245940
-7.681959 6.402149 -1.920645 -2.304588
-7.870538 6.168844 -1.850653 -2.361161
-8.052034 5.929987 -1.778996 -2.415610
-8.226284 5.685794 -1.705738 -2.467885
-8.393130 5.436484 -1.630945 -2.517939
-8.552424 5.182282 -1.554685 -2.565727
-8.704021 4.923416 -1.477025 -2.611206
-8.847784 4.660119 -1.398036 -2.654335
-8.983586 4.392629 -1.317789 -2.695076
